Freq (Hz),Real,Imaginary
0.0000E+00,1.0000E+00,0.0000E+00
1.9500E+00,9.9010E-01,2.2673E-01
3.9100E+00,9.3663E-01,4.4752E-01
5.8600E+00,8.3168E-01,6.5446E-01
7.8100E+00,6.9208E-01,8.1881E-01
9.7700E+00,5.5347E-01,9.8713E-01
1.1700E+01,3.9703E-01,1.1089E+00
1.3700E+01,1.8713E-01,1.2079E+00
1.5600E+01,-1.7030E-02,1.2970E+00
1.7600E+01,-2.2970E-01,1.3465E+00
1.9500E+01,-4.4752E-01,1.3663E+00
2.1500E+01,-6.9109E-01,1.3663E+00
2.3400E+01,-9.2574E-01,1.3465E+00
2.5400E+01,-1.1287E+00,1.2871E+00
2.7300E+01,-1.3762E+00,1.1683E+00
2.9300E+01,-1.5743E+00,1.0495E+00
3.1300E+01,-1.7525E+00,8.9505E-01
3.3200E+01,-1.8911E+00,7.0792E-01
3.5200E+01,-2.0495E+00,4.8515E-01
3.7100E+01,-2.1188E+00,2.8812E-01
3.9100E+01,-2.1881E+00,3.1089E-02
4.1000E+01,-2.2178E+00,-2.4356E-01
4.3000E+01,-2.1881E+00,-4.8416E-01
4.4900E+01,-2.1188E+00,-7.6436E-01
4.6900E+01,-2.0297E+00,-1.0495E+00
4.8800E+01,-1.9010E+00,-1.2772E+00
5.0800E+01,-1.7228E+00,-1.5248E+00
5.2700E+01,-1.5149E+00,-1.7525E+00
5.4700E+01,-1.2772E+00,-1.9505E+00
5.6600E+01,-1.0099E+00,-2.1188E+00
5.8600E+01,-6.9802E-01,-2.2673E+00
6.0500E+01,-3.5842E-01,-2.3663E+00
6.2500E+01,-4.4257E-02,-2.4455E+00
6.4500E+01,3.0198E-01,-2.4653E+00
6.6400E+01,6.6337E-01,-2.4455E+00
6.8400E+01,1.0198E+00,-2.3861E+00
7.0300E+01,1.3762E+00,-2.2772E+00
7.2300E+01,1.6931E+00,-2.1386E+00
7.4200E+01,1.9802E+00,-1.9307E+00
7.6200E+01,2.2871E+00,-1.7129E+00
7.8100E+01,2.5347E+00,-1.4653E+00
8.0100E+01,2.7624E+00,-1.1485E+00
8.2000E+01,2.9505E+00,-8.4851E-01
8.4000E+01,3.0891E+00,-4.6337E-01
8.5900E+01,3.1782E+00,-8.4950E-02
8.7900E+01,3.2079E+00,3.0396E-01
8.9800E+01,3.1881E+00,6.8515E-01
9.1800E+01,3.1089E+00,1.0990E+00
9.3800E+01,2.9604E+00,1.4950E+00
9.5700E+01,2.7723E+00,1.8812E+00
9.7700E+01,2.5644E+00,2.2178E+00
9.9600E+01,2.2475E+00,2.5743E+00
1.0200E+02,1.9307E+00,2.8515E+00
1.0400E+02,1.5743E+00,3.1485E+00
1.0500E+02,1.1188E+00,3.3861E+00
1.0700E+02,7.0594E-01,3.5149E+00
1.0900E+02,2.1386E-01,3.6733E+00
1.1100E+02,-2.9406E-01,3.7129E+00
1.1300E+02,-7.8317E-01,3.7129E+00
1.1500E+02,-1.2772E+00,3.6535E+00
1.1700E+02,-1.7426E+00,3.5248E+00
1.1900E+02,-2.2475E+00,3.3168E+00
1.2100E+02,-2.7228E+00,3.0891E+00
1.2300E+02,-3.1386E+00,2.7921E+00
1.2500E+02,-3.5149E+00,2.4059E+00
1.2700E+02,-3.9010E+00,1.9802E+00
1.2900E+02,-4.1782E+00,1.5941E+00
1.3100E+02,-4.4257E+00,1.0495E+00
1.3300E+02,-4.6139E+00,5.0099E-01
1.3500E+02,-4.7030E+00,-3.4059E-02
1.3700E+02,-4.7228E+00,-6.2376E-01
1.3900E+02,-4.6733E+00,-1.2574E+00
1.4100E+02,-4.6040E+00,-1.8020E+00
1.4300E+02,-4.3861E+00,-2.4059E+00
1.4500E+02,-4.0891E+00,-2.9604E+00
1.4600E+02,-3.7228E+00,-3.5050E+00
1.4800E+02,-3.2772E+00,-3.9505E+00
1.5000E+02,-2.7723E+00,-4.4356E+00
1.5200E+02,-2.2871E+00,-4.7921E+00
1.5400E+02,-1.6634E+00,-5.1188E+00
1.5600E+02,-9.6931E-01,-5.4356E+00
1.5800E+02,-3.4653E-01,-5.6040E+00
1.6000E+02,3.6139E-01,-5.7030E+00
1.6200E+02,1.0990E+00,-5.7030E+00
1.6400E+02,1.9010E+00,-5.6238E+00
1.6600E+02,2.5545E+00,-5.4554E+00
1.6800E+02,3.2772E+00,-5.2178E+00
1.7000E+02,3.9604E+00,-4.8515E+00
1.7200E+02,4.6634E+00,-4.3861E+00
1.7400E+02,5.2376E+00,-3.9010E+00
1.7600E+02,5.8317E+00,-3.2772E+00
1.7800E+02,6.2079E+00,-2.6733E+00
1.8000E+02,6.5743E+00,-1.9208E+00
1.8200E+02,6.9505E+00,-1.0891E+00
1.8400E+02,7.1386E+00,-3.3564E-01
1.8600E+02,7.2871E+00,6.3564E-01
1.8800E+02,7.2277E+00,1.4950E+00
1.8900E+02,7.0792E+00,2.4554E+00
1.9100E+02,6.8614E+00,3.2376E+00
1.9300E+02,6.4554E+00,4.1386E+00
1.9500E+02,6.0198E+00,4.9604E+00
1.9700E+02,5.3960E+00,5.8020E+00
1.9900E+02,4.7525E+00,6.4356E+00
2.0100E+02,4.0990E+00,7.0396E+00
2.0300E+02,3.1584E+00,7.6931E+00
2.0500E+02,2.3366E+00,8.1584E+00
2.0700E+02,1.3069E+00,8.4851E+00
2.0900E+02,1.9406E-01,8.7327E+00
2.1100E+02,-9.2673E-01,8.8812E+00
2.1300E+02,-1.9901E+00,8.8218E+00
2.1500E+02,-3.2178E+00,8.7723E+00
2.1700E+02,-4.3861E+00,8.5248E+00
2.1900E+02,-5.4653E+00,8.0693E+00
2.2100E+02,-6.3762E+00,7.5050E+00
2.2300E+02,-7.2772E+00,6.8218E+00
2.2500E+02,-8.3960E+00,5.9406E+00
2.2700E+02,-9.1089E+00,5.1287E+00
2.2900E+02,-9.8515E+00,4.0099E+00
2.3000E+02,-1.0495E+01,2.8416E+00
2.3200E+02,-1.0990E+01,1.6238E+00
2.3400E+02,-1.1287E+01,3.2277E-01
2.3600E+02,-1.1188E+01,-1.0396E+00
2.3800E+02,-1.1188E+01,-2.4950E+00
2.4000E+02,-1.1089E+01,-3.7822E+00
2.4200E+02,-1.0792E+01,-5.2178E+00
2.4400E+02,-1.0297E+01,-6.7426E+00
2.4600E+02,-9.6832E+00,-7.8515E+00
2.4800E+02,-8.8911E+00,-9.0396E+00
2.5000E+02,-7.9406E+00,-1.0198E+01
2.5200E+02,-6.6535E+00,-1.1287E+01
2.5400E+02,-5.2277E+00,-1.2277E+01
2.5600E+02,-3.8317E+00,-1.3168E+01
2.5800E+02,-2.3069E+00,-1.3762E+01
2.6000E+02,-9.3762E-01,-1.4257E+01
2.6200E+02,6.3960E-01,-1.4653E+01
2.6400E+02,2.4257E+00,-1.4653E+01
2.6600E+02,4.4059E+00,-1.4554E+01
2.6800E+02,6.2475E+00,-1.4257E+01
2.7000E+02,8.0990E+00,-1.3762E+01
2.7100E+02,9.6832E+00,-1.3069E+01
2.7300E+02,1.1584E+01,-1.1881E+01
2.7500E+02,1.3168E+01,-1.0693E+01
2.7700E+02,1.4455E+01,-9.4455E+00
2.7900E+02,1.5941E+01,-7.8317E+00
2.8100E+02,1.7228E+01,-6.1683E+00
2.8300E+02,1.8317E+01,-4.1782E+00
2.8500E+02,1.8713E+01,-2.1287E+00
2.8700E+02,1.9208E+01,-1.3960E-01
2.8900E+02,1.9604E+01,2.4356E+00
2.9100E+02,1.9604E+01,4.8119E+00
2.9300E+02,1.9307E+01,6.7525E+00
2.9500E+02,1.8812E+01,9.5149E+00
2.9700E+02,1.8218E+01,1.1584E+01
2.9900E+02,1.7129E+01,1.4455E+01
3.0100E+02,1.5842E+01,1.6535E+01
3.0300E+02,1.4356E+01,1.8218E+01
3.0500E+02,1.2178E+01,1.9802E+01
3.0700E+02,1.0396E+01,2.1584E+01
3.0900E+02,7.4257E+00,2.3366E+01
3.1100E+02,5.3960E+00,2.4455E+01
3.1300E+02,2.8614E+00,2.5644E+01
3.1400E+02,-1.4851E-01,2.6436E+01
3.1600E+02,-3.5347E+00,2.6535E+01
3.1800E+02,-6.2673E+00,2.6931E+01
3.2000E+02,-8.9604E+00,2.6832E+01
3.2200E+02,-1.2475E+01,2.5743E+01
3.2400E+02,-1.5347E+01,2.4851E+01
3.2600E+02,-1.9109E+01,2.3564E+01
3.2800E+02,-2.1089E+01,2.1683E+01
3.3000E+02,-2.4059E+01,2.0297E+01
3.3200E+02,-2.6337E+01,1.8515E+01
3.3400E+02,-2.9109E+01,1.5941E+01
3.3600E+02,-3.1188E+01,1.1881E+01
3.3800E+02,-3.3069E+01,8.8812E+00
3.4000E+02,-3.4752E+01,5.9901E+00
3.4200E+02,-3.5149E+01,1.7624E+00
3.4400E+02,-3.5545E+01,-9.7030E-01
3.4600E+02,-3.6733E+01,-4.3069E+00
3.4800E+02,-3.6832E+01,-8.9406E+00
3.5000E+02,-3.6931E+01,-1.2574E+01
3.5200E+02,-3.7030E+01,-1.7129E+01
3.5400E+02,-3.4653E+01,-2.1881E+01
3.5500E+02,-3.2574E+01,-2.5545E+01
3.5700E+02,-3.0396E+01,-2.9109E+01
3.5900E+02,-2.9208E+01,-3.1980E+01
3.6100E+02,-2.6634E+01,-3.4752E+01
3.6300E+02,-2.4158E+01,-3.8416E+01
3.6500E+02,-2.0891E+01,-4.0693E+01
3.6700E+02,-1.5743E+01,-4.3465E+01
3.6900E+02,-1.2178E+01,-4.6832E+01
3.7100E+02,-6.9802E+00,-4.9010E+01
3.7300E+02,-2.3465E+00,-4.7723E+01
3.7500E+02,1.8812E-01,-4.8515E+01
3.7700E+02,6.0891E+00,-5.0396E+01
3.7900E+02,1.0693E+01,-4.9802E+01
3.8100E+02,1.5248E+01,-4.9109E+01
3.8300E+02,1.9505E+01,-4.8218E+01
3.8500E+02,2.6634E+01,-4.6139E+01
3.8700E+02,3.1782E+01,-4.3069E+01
3.8900E+02,3.4059E+01,-3.9901E+01
3.9100E+02,3.5644E+01,-3.8020E+01
3.9300E+02,4.0396E+01,-3.4653E+01
3.9500E+02,4.3663E+01,-3.0594E+01
3.9600E+02,4.8020E+01,-2.7426E+01
3.9800E+02,5.0198E+01,-2.1782E+01
4.0000E+02,5.2475E+01,-1.6436E+01
4.0200E+02,5.3663E+01,-1.0891E+01
4.0400E+02,5.3960E+01,-5.3069E+00
4.0600E+02,5.2475E+01,-7.3366E-01
4.0800E+02,5.2673E+01,3.8416E+00
4.1000E+02,5.1980E+01,7.8614E+00
4.1200E+02,5.2178E+01,1.2178E+01
4.1400E+02,5.1485E+01,1.9307E+01
4.1600E+02,4.7327E+01,2.3861E+01
4.1800E+02,4.5842E+01,2.8020E+01
4.2000E+02,4.4356E+01,3.0990E+01
4.2200E+02,3.9109E+01,3.2376E+01
4.2400E+02,2.9802E+01,3.5644E+01
4.2600E+02,3.0000E+01,3.7228E+01
4.2800E+02,2.5149E+01,4.0891E+01
4.3000E+02,2.0891E+01,4.2970E+01
4.3200E+02,1.5842E+01,4.6931E+01
4.3400E+02,1.1782E+01,4.4257E+01
4.3600E+02,6.9703E+00,4.4455E+01
4.3800E+02,1.0297E+00,4.5545E+01
4.3900E+02,-5.2376E+00,4.8218E+01
4.4100E+02,-7.3663E+00,4.4059E+01
4.4300E+02,-1.0495E+01,4.3663E+01
4.4500E+02,-1.4158E+01,4.0990E+01
4.4700E+02,-2.0099E+01,3.1485E+01
4.4900E+02,-2.1089E+01,2.6337E+01
4.5100E+02,-2.2673E+01,2.9109E+01
4.5300E+02,-2.6535E+01,2.6139E+01
4.5500E+02,-2.9109E+01,2.5248E+01
4.5700E+02,-3.0792E+01,1.8911E+01
4.5900E+02,-3.0594E+01,1.5545E+01
4.6100E+02,-2.9010E+01,1.3861E+01
4.6300E+02,-3.0594E+01,1.3762E+01
4.6500E+02,-2.8515E+01,7.5347E+00
4.6700E+02,-2.6337E+01,4.0396E+00
4.6900E+02,-2.2178E+01,-2.7525E+00
4.7100E+02,-2.3366E+01,-2.2277E+00
4.7300E+02,-2.4554E+01,-3.2178E+00
4.7500E+02,-2.1683E+01,-1.1386E+01
4.7700E+02,-2.3366E+01,-8.1782E+00
4.7900E+02,-2.1881E+01,-1.0891E+01
4.8000E+02,-1.0099E+01,-1.0000E+01
4.8200E+02,-9.7129E+00,-1.1485E+01
4.8400E+02,-8.8812E+00,-7.0594E+00
4.8600E+02,-8.0396E+00,-1.1089E+01
4.8800E+02,-3.0495E+00,-1.6733E+01
4.9000E+02,-1.2475E+00,-1.1089E+01
4.9200E+02,9.2871E-01,-5.2376E+00
4.9400E+02,6.0495E+00,-4.4356E+00
4.9600E+02,2.3366E+00,-6.7624E+00
4.9800E+02,1.8812E+00,-4.1287E+00
5.0000E+02,2.7030E-01,5.0990E-03
