Freq (Hz),Real,Imaginary
0.0000E+00,1.0000E+00,0.0000E+00
1.9500E+00,9.9298E-01,1.9057E-01
3.9100E+00,9.4584E-01,3.8014E-01
5.8600E+00,8.6560E-01,5.6068E-01
7.8100E+00,7.5226E-01,7.0812E-01
9.7700E+00,6.3892E-01,8.6259E-01
1.1700E+01,5.0853E-01,9.7292E-01
1.3700E+01,3.2899E-01,1.0732E+00
1.5600E+01,1.5547E-01,1.1635E+00
1.7600E+01,-2.7583E-02,1.2237E+00
1.9500E+01,-2.1765E-01,1.2638E+00
2.1500E+01,-4.3430E-01,1.2839E+00
2.3400E+01,-6.4193E-01,1.2839E+00
2.5400E+01,-8.2748E-01,1.2638E+00
2.7300E+01,-1.0532E+00,1.1936E+00
2.9300E+01,-1.2538E+00,1.1234E+00
3.1300E+01,-1.4243E+00,1.0130E+00
3.3200E+01,-1.5747E+00,8.8365E-01
3.5200E+01,-1.7452E+00,7.2618E-01
3.7100E+01,-1.8455E+00,5.7874E-01
3.9100E+01,-1.9458E+00,3.8215E-01
4.1000E+01,-2.0261E+00,1.6449E-01
4.3000E+01,-2.0461E+00,-3.3200E-02
4.4900E+01,-2.0461E+00,-2.6780E-01
4.6900E+01,-2.0361E+00,-5.0853E-01
4.8800E+01,-1.9860E+00,-7.1515E-01
5.0800E+01,-1.8857E+00,-9.4483E-01
5.2700E+01,-1.7653E+00,-1.1635E+00
5.4700E+01,-1.6249E+00,-1.3641E+00
5.6600E+01,-1.4443E+00,-1.5547E+00
5.8600E+01,-1.2237E+00,-1.7352E+00
6.0500E+01,-9.7392E-01,-1.8857E+00
6.2500E+01,-7.3922E-01,-2.0160E+00
6.4500E+01,-4.6740E-01,-2.1063E+00
6.6400E+01,-1.7252E-01,-2.1765E+00
6.8400E+01,1.2839E-01,-2.2166E+00
7.0300E+01,4.4132E-01,-2.2267E+00
7.2300E+01,7.3521E-01,-2.1966E+00
7.4200E+01,1.0130E+00,-2.1163E+00
7.6200E+01,1.3340E+00,-2.0361E+00
7.8100E+01,1.6048E+00,-1.9157E+00
8.0100E+01,1.8756E+00,-1.7352E+00
8.2000E+01,2.1163E+00,-1.5747E+00
8.4000E+01,2.3470E+00,-1.3240E+00
8.5900E+01,2.5476E+00,-1.0632E+00
8.7900E+01,2.6981E+00,-7.8736E-01
8.9800E+01,2.8185E+00,-5.0451E-01
9.1800E+01,2.8987E+00,-1.7553E-01
9.3800E+01,2.9288E+00,1.6249E-01
9.5700E+01,2.9288E+00,5.0652E-01
9.7700E+01,2.8987E+00,8.1846E-01
9.9600E+01,2.7884E+00,1.1836E+00
1.0200E+02,2.6580E+00,1.4945E+00
1.0400E+02,2.5075E+00,1.8255E+00
1.0500E+02,2.2668E+00,2.1464E+00
1.0700E+02,2.0160E+00,2.3872E+00
1.0900E+02,1.7151E+00,2.6780E+00
1.1100E+02,1.3641E+00,2.8887E+00
1.1300E+02,1.0130E+00,3.0692E+00
1.1500E+02,6.3992E-01,3.2197E+00
1.1700E+02,2.5577E-01,3.3099E+00
1.1900E+02,-1.8957E-01,3.3601E+00
1.2100E+02,-6.2487E-01,3.3902E+00
1.2300E+02,-1.0431E+00,3.3501E+00
1.2500E+02,-1.4644E+00,3.2497E+00
1.2700E+02,-1.9258E+00,3.1194E+00
1.2900E+02,-2.2869E+00,2.9689E+00
1.3100E+02,-2.6981E+00,2.7182E+00
1.3300E+02,-3.0692E+00,2.4273E+00
1.3500E+02,-3.3801E+00,2.1163E+00
1.3700E+02,-3.6610E+00,1.7452E+00
1.3900E+02,-3.9318E+00,1.3139E+00
1.4100E+02,-4.1324E+00,9.3581E-01
1.4300E+02,-4.2828E+00,4.4835E-01
1.4500E+02,-4.3531E+00,-4.1123E-02
1.4600E+02,-4.3731E+00,-5.4664E-01
1.4800E+02,-4.3129E+00,-1.0331E+00
1.5000E+02,-4.2227E+00,-1.5747E+00
1.5200E+02,-4.0923E+00,-2.0261E+00
1.5400E+02,-3.8616E+00,-2.5176E+00
1.5600E+02,-3.5807E+00,-3.0491E+00
1.5800E+02,-3.2698E+00,-3.4504E+00
1.6000E+02,-2.8786E+00,-3.8616E+00
1.6200E+02,-2.4273E+00,-4.2227E+00
1.6400E+02,-1.8957E+00,-4.5838E+00
1.6600E+02,-1.4142E+00,-4.8044E+00
1.6800E+02,-8.4654E-01,-5.0251E+00
1.7000E+02,-2.3872E-01,-5.1655E+00
1.7200E+02,4.2126E-01,-5.2658E+00
1.7400E+02,1.0231E+00,-5.2758E+00
1.7600E+02,1.7252E+00,-5.2257E+00
1.7800E+02,2.2668E+00,-5.0853E+00
1.8000E+02,2.8887E+00,-4.8847E+00
1.8200E+02,3.5807E+00,-4.6138E+00
1.8400E+02,4.1123E+00,-4.2828E+00
1.8600E+02,4.7242E+00,-3.8516E+00
1.8800E+02,5.1956E+00,-3.3701E+00
1.8900E+02,5.6670E+00,-2.7683E+00
1.9100E+02,5.9980E+00,-2.2166E+00
1.9300E+02,6.2989E+00,-1.5246E+00
1.9500E+02,6.5396E+00,-8.4955E-01
1.9700E+02,6.6901E+00,-6.2788E-02
1.9900E+02,6.7101E+00,6.4594E-01
2.0100E+02,6.7202E+00,1.3340E+00
2.0300E+02,6.6299E+00,2.2267E+00
2.0500E+02,6.4794E+00,2.9288E+00
2.0700E+02,6.1886E+00,3.6710E+00
2.0900E+02,5.7974E+00,4.4433E+00
2.1100E+02,5.3059E+00,5.1655E+00
2.1300E+02,4.7543E+00,5.7874E+00
2.1500E+02,4.1625E+00,6.4895E+00
2.1700E+02,3.4303E+00,7.0211E+00
2.1900E+02,2.6379E+00,7.4624E+00
2.2100E+02,1.8154E+00,7.8134E+00
2.2300E+02,9.7091E-01,8.0742E+00
2.2500E+02,-9.4082E-02,8.3551E+00
2.2700E+02,-9.7192E-01,8.4052E+00
2.2900E+02,-2.0160E+00,8.3651E+00
2.3000E+02,-3.0090E+00,8.3049E+00
2.3200E+02,-3.9418E+00,8.0843E+00
2.3400E+02,-4.9649E+00,7.7533E+00
2.3600E+02,-5.8776E+00,7.1113E+00
2.3800E+02,-6.7803E+00,6.5196E+00
2.4000E+02,-7.5627E+00,5.9178E+00
2.4200E+02,-8.3551E+00,5.1655E+00
2.4400E+02,-9.1775E+00,4.2929E+00
2.4600E+02,-9.6590E+00,3.3902E+00
2.4800E+02,-1.0130E+01,2.3571E+00
2.5000E+02,-1.0532E+01,1.2738E+00
2.5200E+02,-1.0732E+01,5.6670E-02
2.5400E+02,-1.0832E+01,-1.2738E+00
2.5600E+02,-1.0933E+01,-2.4473E+00
2.5800E+02,-1.0832E+01,-3.7212E+00
2.6000E+02,-1.0532E+01,-4.9047E+00
2.6200E+02,-1.0130E+01,-6.0983E+00
2.6400E+02,-9.4985E+00,-7.2518E+00
2.6600E+02,-8.7462E+00,-8.5557E+00
2.6800E+02,-7.9238E+00,-9.6189E+00
2.7000E+02,-7.0712E+00,-1.0732E+01
2.7100E+02,-5.9679E+00,-1.1635E+01
2.7300E+02,-4.6239E+00,-1.2437E+01
2.7500E+02,-3.3400E+00,-1.3240E+01
2.7700E+02,-1.9358E+00,-1.3641E+01
2.7900E+02,-4.7442E-01,-1.4142E+01
2.8100E+02,1.0010E+00,-1.4544E+01
2.8300E+02,2.6981E+00,-1.4644E+01
2.8500E+02,4.4835E+00,-1.4443E+01
2.8700E+02,6.0782E+00,-1.4243E+01
2.8900E+02,7.8335E+00,-1.3842E+01
2.9100E+02,9.5085E+00,-1.3240E+01
2.9300E+02,1.0933E+01,-1.2538E+01
2.9500E+02,1.2638E+01,-1.1635E+01
2.9700E+02,1.3842E+01,-1.0632E+01
2.9900E+02,1.5446E+01,-9.2979E+00
3.0100E+02,1.6550E+01,-7.8435E+00
3.0300E+02,1.7452E+01,-6.1184E+00
3.0500E+02,1.8355E+01,-4.0822E+00
3.0700E+02,1.9057E+01,-2.4173E+00
3.0900E+02,1.9960E+01,-1.9057E-01
3.1100E+02,2.0160E+01,1.6449E+00
3.1300E+02,2.0160E+01,3.9117E+00
3.1400E+02,2.0261E+01,6.0983E+00
3.1600E+02,1.9960E+01,8.2247E+00
3.1800E+02,1.9358E+01,1.0331E+01
3.2000E+02,1.8455E+01,1.2337E+01
3.2200E+02,1.7452E+01,1.4644E+01
3.2400E+02,1.6349E+01,1.6951E+01
3.2600E+02,1.5045E+01,1.9057E+01
3.2800E+02,1.2939E+01,2.0662E+01
3.3000E+02,1.0933E+01,2.2467E+01
3.3200E+02,9.2477E+00,2.3872E+01
3.3400E+02,7.1916E+00,2.5376E+01
3.3600E+02,4.5637E+00,2.6680E+01
3.3800E+02,2.2568E+00,2.7683E+01
3.4000E+02,-3.9920E-01,2.8385E+01
3.4200E+02,-3.7212E+00,2.8786E+01
3.4400E+02,-6.6901E+00,2.8686E+01
3.4600E+02,-9.2678E+00,2.8887E+01
3.4800E+02,-1.2136E+01,2.8786E+01
3.5000E+02,-1.4744E+01,2.7783E+01
3.5200E+02,-1.7753E+01,2.6780E+01
3.5400E+02,-2.1163E+01,2.5577E+01
3.5500E+02,-2.3571E+01,2.4674E+01
3.5700E+02,-2.6179E+01,2.2668E+01
3.5900E+02,-2.8285E+01,2.0361E+01
3.6100E+02,-3.0491E+01,1.7753E+01
3.6300E+02,-3.2497E+01,1.5246E+01
3.6500E+02,-3.4704E+01,1.2437E+01
3.6700E+02,-3.6610E+01,9.5486E+00
3.6900E+02,-3.7813E+01,6.7202E+00
3.7100E+02,-3.8816E+01,3.5206E+00
3.7300E+02,-3.9519E+01,3.1394E-01
3.7500E+02,-3.9519E+01,-3.6209E+00
3.7700E+02,-3.9418E+01,-6.8305E+00
3.7900E+02,-3.9519E+01,-1.0632E+01
3.8100E+02,-3.8616E+01,-1.4042E+01
3.8300E+02,-3.8014E+01,-1.7252E+01
3.8500E+02,-3.6911E+01,-2.1063E+01
3.8700E+02,-3.5507E+01,-2.3972E+01
3.8900E+02,-3.3501E+01,-2.7282E+01
3.9100E+02,-3.0692E+01,-3.0592E+01
3.9300E+02,-2.8987E+01,-3.3902E+01
3.9500E+02,-2.5978E+01,-3.6610E+01
3.9600E+02,-2.3069E+01,-3.8415E+01
3.9800E+02,-2.0361E+01,-4.0321E+01
4.0000E+02,-1.6550E+01,-4.2327E+01
4.0200E+02,-1.2638E+01,-4.4032E+01
4.0400E+02,-9.1876E+00,-4.4734E+01
4.0600E+02,-5.2257E+00,-4.5838E+01
4.0800E+02,-1.3240E+00,-4.6239E+01
4.1000E+02,2.5476E+00,-4.6138E+01
4.1200E+02,6.4895E+00,-4.6640E+01
4.1400E+02,1.0832E+01,-4.5436E+01
4.1600E+02,1.5145E+01,-4.3531E+01
4.1800E+02,1.9057E+01,-4.1926E+01
4.2000E+02,2.2668E+01,-4.1123E+01
4.2200E+02,2.5677E+01,-3.8816E+01
4.2400E+02,2.7984E+01,-3.6209E+01
4.2600E+02,3.1394E+01,-3.2397E+01
4.2800E+02,3.3801E+01,-2.8786E+01
4.3000E+02,3.7111E+01,-2.6780E+01
4.3200E+02,3.8917E+01,-2.2668E+01
4.3400E+02,4.0722E+01,-1.9057E+01
4.3600E+02,4.2327E+01,-1.5246E+01
4.3800E+02,4.2929E+01,-1.1334E+01
4.3900E+02,4.2628E+01,-6.8004E+00
4.4100E+02,4.3129E+01,-1.2337E+00
4.4300E+02,4.3731E+01,1.8656E+00
4.4500E+02,4.3029E+01,6.1585E+00
4.4700E+02,4.0522E+01,1.0030E+01
4.4900E+02,3.7813E+01,1.4644E+01
4.5100E+02,3.6610E+01,1.8857E+01
4.5300E+02,3.4704E+01,2.1966E+01
4.5500E+02,3.2497E+01,2.5176E+01
4.5700E+02,2.9288E+01,2.6881E+01
4.5900E+02,2.6379E+01,3.0692E+01
4.6100E+02,2.2668E+01,3.2497E+01
4.6300E+02,1.8857E+01,3.5707E+01
4.6500E+02,1.4845E+01,3.7011E+01
4.6700E+02,1.1334E+01,3.8415E+01
4.6900E+02,5.6770E+00,3.7813E+01
4.7100E+02,2.3270E+00,3.8516E+01
4.7300E+02,-1.4544E+00,3.8616E+01
4.7500E+02,-5.6670E+00,3.6610E+01
4.7700E+02,-9.5186E+00,3.7613E+01
4.7900E+02,-1.3741E+01,3.7111E+01
4.8000E+02,-1.7553E+01,3.3200E+01
4.8200E+02,-2.0361E+01,3.1194E+01
4.8400E+02,-2.3671E+01,2.8887E+01
4.8600E+02,-2.6479E+01,2.5777E+01
4.8800E+02,-2.8987E+01,2.2166E+01
4.9000E+02,-3.1795E+01,1.8756E+01
4.9200E+02,-3.2798E+01,1.5446E+01
4.9400E+02,-3.2899E+01,1.0933E+01
4.9600E+02,-3.5707E+01,8.1745E+00
4.9800E+02,-3.6409E+01,3.7111E+00
5.0000E+02,-3.5306E+01,-2.2166E-01
