Freq (Hz),Real,Imaginary
0.0000E+00,1.0000E+00,0.0000E+00
1.9500E+00,1.0019E+00,6.1578E-02
3.9100E+00,9.8099E-01,1.2148E-01
5.8600E+00,9.5133E-01,1.7947E-01
7.8100E+00,9.2205E-01,2.2490E-01
9.7700E+00,8.8859E-01,2.7015E-01
1.1700E+01,8.5779E-01,3.1198E-01
1.3700E+01,8.2490E-01,3.5703E-01
1.5600E+01,7.8707E-01,4.0095E-01
1.7600E+01,7.4468E-01,4.4106E-01
1.9500E+01,6.9962E-01,4.8460E-01
2.1500E+01,6.5133E-01,5.2167E-01
2.3400E+01,5.9487E-01,5.6065E-01
2.5400E+01,5.3973E-01,5.9696E-01
2.7300E+01,4.7719E-01,6.3099E-01
2.9300E+01,4.1141E-01,6.6198E-01
3.1300E+01,3.4620E-01,6.9030E-01
3.3200E+01,2.7719E-01,7.1635E-01
3.5200E+01,2.0646E-01,7.3973E-01
3.7100E+01,1.3118E-01,7.5951E-01
3.9100E+01,5.6844E-02,7.7548E-01
4.1000E+01,-1.8726E-02,7.9068E-01
4.3000E+01,-1.0000E-01,8.0114E-01
4.4900E+01,-1.7909E-01,8.0989E-01
4.6900E+01,-2.5703E-01,8.1255E-01
4.8800E+01,-3.3688E-01,8.1293E-01
5.0800E+01,-4.1692E-01,8.0837E-01
5.2700E+01,-4.9411E-01,8.0247E-01
5.4700E+01,-5.7357E-01,7.8954E-01
5.6600E+01,-6.5304E-01,7.7757E-01
5.8600E+01,-7.2700E-01,7.6103E-01
6.0500E+01,-7.9962E-01,7.3859E-01
6.2500E+01,-8.7338E-01,7.1236E-01
6.4500E+01,-9.4183E-01,6.8441E-01
6.6400E+01,-1.0114E+00,6.5152E-01
6.8400E+01,-1.0741E+00,6.1559E-01
7.0300E+01,-1.1293E+00,5.7643E-01
7.2300E+01,-1.1882E+00,5.3384E-01
7.4200E+01,-1.2433E+00,4.8859E-01
7.6200E+01,-1.2909E+00,4.4030E-01
7.8100E+01,-1.3384E+00,3.8916E-01
8.0100E+01,-1.3764E+00,3.3688E-01
8.2000E+01,-1.4144E+00,2.7814E-01
8.4000E+01,-1.4430E+00,2.2129E-01
8.5900E+01,-1.4715E+00,1.6027E-01
8.7900E+01,-1.4905E+00,9.9106E-02
8.9800E+01,-1.5057E+00,3.2338E-02
9.1800E+01,-1.5152E+00,-3.4829E-02
9.3800E+01,-1.5190E+00,-9.9430E-02
9.5700E+01,-1.5190E+00,-1.6616E-01
9.7700E+01,-1.5114E+00,-2.3631E-01
9.9600E+01,-1.5000E+00,-3.0608E-01
1.0200E+02,-1.4829E+00,-3.7529E-01
1.0400E+02,-1.4563E+00,-4.4810E-01
1.0500E+02,-1.4259E+00,-5.1597E-01
1.0700E+02,-1.3935E+00,-5.8612E-01
1.0900E+02,-1.3498E+00,-6.5399E-01
1.1100E+02,-1.3061E+00,-7.2034E-01
1.1300E+02,-1.2510E+00,-7.8707E-01
1.1500E+02,-1.1977E+00,-8.5095E-01
1.1700E+02,-1.1312E+00,-9.1236E-01
1.1900E+02,-1.0646E+00,-9.7148E-01
1.2100E+02,-9.9430E-01,-1.0323E+00
1.2300E+02,-9.1426E-01,-1.0894E+00
1.2500E+02,-8.3232E-01,-1.1388E+00
1.2700E+02,-7.4848E-01,-1.1882E+00
1.2900E+02,-6.5589E-01,-1.2376E+00
1.3100E+02,-5.6502E-01,-1.2795E+00
1.3300E+02,-4.6502E-01,-1.3156E+00
1.3500E+02,-3.6502E-01,-1.3498E+00
1.3700E+02,-2.6312E-01,-1.3821E+00
1.3900E+02,-1.5951E-01,-1.4030E+00
1.4100E+02,-5.4106E-02,-1.4259E+00
1.4300E+02,5.4202E-02,-1.4430E+00
1.4500E+02,1.6749E-01,-1.4544E+00
1.4600E+02,2.8460E-01,-1.4601E+00
1.4800E+02,3.9601E-01,-1.4639E+00
1.5000E+02,5.0951E-01,-1.4582E+00
1.5200E+02,6.2281E-01,-1.4506E+00
1.5400E+02,7.3479E-01,-1.4392E+00
1.5600E+02,8.4411E-01,-1.4183E+00
1.5800E+02,9.6198E-01,-1.3916E+00
1.6000E+02,1.0684E+00,-1.3612E+00
1.6200E+02,1.1768E+00,-1.3251E+00
1.6400E+02,1.2814E+00,-1.2833E+00
1.6600E+02,1.3783E+00,-1.2376E+00
1.6800E+02,1.4810E+00,-1.1825E+00
1.7000E+02,1.5837E+00,-1.1293E+00
1.7200E+02,1.6749E+00,-1.0703E+00
1.7400E+02,1.7643E+00,-9.9430E-01
1.7600E+02,1.8403E+00,-9.2243E-01
1.7800E+02,1.9240E+00,-8.4335E-01
1.8000E+02,2.0057E+00,-7.6179E-01
1.8200E+02,2.0779E+00,-6.8042E-01
1.8400E+02,2.1331E+00,-5.8593E-01
1.8600E+02,2.1882E+00,-4.9430E-01
1.8800E+02,2.2471E+00,-3.9373E-01
1.8900E+02,2.2928E+00,-2.9525E-01
1.9100E+02,2.3251E+00,-1.8498E-01
1.9300E+02,2.3498E+00,-7.4905E-02
1.9500E+02,2.3650E+00,3.4259E-02
1.9700E+02,2.3916E+00,1.4582E-01
1.9900E+02,2.3954E+00,2.6901E-01
2.0100E+02,2.3897E+00,3.9468E-01
2.0300E+02,2.3878E+00,5.0019E-01
2.0500E+02,2.3726E+00,6.1901E-01
2.0700E+02,2.3498E+00,7.4715E-01
2.0900E+02,2.3156E+00,8.6388E-01
2.1100E+02,2.2738E+00,9.8479E-01
2.1300E+02,2.2072E+00,1.1027E+00
2.1500E+02,2.1540E+00,1.2243E+00
2.1700E+02,2.0913E+00,1.3479E+00
2.1900E+02,2.0095E+00,1.4658E+00
2.2100E+02,1.9278E+00,1.5722E+00
2.2300E+02,1.8289E+00,1.6825E+00
2.2500E+02,1.7300E+00,1.8042E+00
2.2700E+02,1.6388E+00,1.9183E+00
2.2900E+02,1.5171E+00,2.0076E+00
2.3000E+02,1.3821E+00,2.0970E+00
2.3200E+02,1.2529E+00,2.1996E+00
2.3400E+02,1.1217E+00,2.2795E+00
2.3600E+02,9.7510E-01,2.3707E+00
2.3800E+02,8.3099E-01,2.4582E+00
2.4000E+02,6.7319E-01,2.5171E+00
2.4200E+02,5.0856E-01,2.5817E+00
2.4400E+02,3.4240E-01,2.6293E+00
2.4600E+02,1.8004E-01,2.6787E+00
2.4800E+02,7.9390E-03,2.7376E+00
2.5000E+02,-1.5361E-01,2.7738E+00
2.5200E+02,-3.3536E-01,2.7833E+00
2.5400E+02,-5.4506E-01,2.8384E+00
2.5600E+02,-7.1369E-01,2.8517E+00
2.5800E+02,-9.3099E-01,2.8422E+00
2.6000E+02,-1.1198E+00,2.8365E+00
2.6200E+02,-1.2966E+00,2.8023E+00
2.6400E+02,-1.5114E+00,2.7757E+00
2.6600E+02,-1.6863E+00,2.7529E+00
2.6800E+02,-1.8593E+00,2.6958E+00
2.7000E+02,-2.0494E+00,2.6388E+00
2.7100E+02,-2.2548E+00,2.5817E+00
2.7300E+02,-2.4163E+00,2.5057E+00
2.7500E+02,-2.5913E+00,2.4297E+00
2.7700E+02,-2.7662E+00,2.3555E+00
2.7900E+02,-2.9144E+00,2.2357E+00
2.8100E+02,-3.0894E+00,2.0817E+00
2.8300E+02,-3.2529E+00,1.9582E+00
2.8500E+02,-3.4163E+00,1.8251E+00
2.8700E+02,-3.5380E+00,1.7376E+00
2.8900E+02,-3.6863E+00,1.6065E+00
2.9100E+02,-3.8840E+00,1.4278E+00
2.9300E+02,-3.9715E+00,1.2814E+00
2.9500E+02,-4.0703E+00,1.1236E+00
2.9700E+02,-4.2091E+00,9.5798E-01
2.9900E+02,-4.2852E+00,7.4677E-01
3.0100E+02,-4.3479E+00,5.9011E-01
3.0300E+02,-4.3954E+00,3.6578E-01
3.0500E+02,-4.5038E+00,1.2321E-01
3.0700E+02,-4.5494E+00,-1.1610E-01
3.0900E+02,-4.5665E+00,-3.0114E-01
3.1100E+02,-4.5989E+00,-5.3878E-01
3.1300E+02,-4.6274E+00,-7.8175E-01
3.1400E+02,-4.6559E+00,-9.9240E-01
3.1600E+02,-4.5970E+00,-1.3327E+00
3.1800E+02,-4.5323E+00,-1.5532E+00
3.2000E+02,-4.5779E+00,-1.7719E+00
3.2200E+02,-4.5228E+00,-2.0475E+00
3.2400E+02,-4.3745E+00,-2.2414E+00
3.2600E+02,-4.3631E+00,-2.4924E+00
3.2800E+02,-4.3574E+00,-2.7129E+00
3.3000E+02,-4.2605E+00,-2.9582E+00
3.3200E+02,-4.1008E+00,-3.3156E+00
3.3400E+02,-3.9620E+00,-3.5817E+00
3.3600E+02,-3.8213E+00,-3.7795E+00
3.3800E+02,-3.6084E+00,-4.0437E+00
3.4000E+02,-3.5076E+00,-4.3422E+00
3.4200E+02,-3.3213E+00,-4.4905E+00
3.4400E+02,-3.0570E+00,-4.6635E+00
3.4600E+02,-2.9087E+00,-4.9525E+00
3.4800E+02,-2.6977E+00,-5.2548E+00
3.5000E+02,-2.4734E+00,-5.5456E+00
3.5200E+02,-2.2719E+00,-5.6540E+00
3.5400E+02,-1.9810E+00,-5.7776E+00
3.5500E+02,-1.7224E+00,-5.9981E+00
3.5700E+02,-1.4848E+00,-6.2852E+00
3.5900E+02,-1.1956E+00,-6.4449E+00
3.6100E+02,-7.8213E-01,-6.6255E+00
3.6300E+02,-3.4772E-01,-6.8612E+00
3.6500E+02,-6.3080E-02,-6.9886E+00
3.6700E+02,2.0266E-01,-7.1901E+00
3.6900E+02,3.9287E-01,-7.3080E+00
3.7100E+02,7.7719E-01,-7.3080E+00
3.7300E+02,1.1295E+00,-7.3688E+00
3.7500E+02,1.3992E+00,-7.3726E+00
3.7700E+02,1.5779E+00,-7.4582E+00
3.7900E+02,1.9125E+00,-7.6920E+00
3.8100E+02,2.2395E+00,-7.8821E+00
3.8300E+02,2.6730E+00,-7.8080E+00
3.8500E+02,3.1331E+00,-7.7167E+00
3.8700E+02,3.4125E+00,-7.8403E+00
3.8900E+02,3.5019E+00,-7.8669E+00
3.9100E+02,3.8023E+00,-7.8061E+00
3.9300E+02,4.2319E+00,-7.7890E+00
3.9500E+02,4.4373E+00,-7.6749E+00
3.9600E+02,4.7814E+00,-7.5209E+00
3.9800E+02,5.1711E+00,-7.6350E+00
4.0000E+02,5.5456E+00,-7.5779E+00
4.0200E+02,5.6787E+00,-7.4449E+00
4.0400E+02,6.0494E+00,-7.2814E+00
4.0600E+02,6.1502E+00,-7.1787E+00
4.0800E+02,6.6559E+00,-7.2224E+00
4.1000E+02,6.8897E+00,-7.1046E+00
4.1200E+02,6.8631E+00,-6.7966E+00
4.1400E+02,7.0646E+00,-6.4468E+00
4.1600E+02,7.3517E+00,-6.4354E+00
4.1800E+02,7.8289E+00,-6.3289E+00
4.2000E+02,7.8403E+00,-5.9658E+00
4.2200E+02,7.8878E+00,-5.6977E+00
4.2400E+02,8.3897E+00,-5.6654E+00
4.2600E+02,8.4106E+00,-5.3878E+00
4.2800E+02,8.3688E+00,-5.3593E+00
4.3000E+02,8.1958E+00,-4.9905E+00
4.3200E+02,8.4221E+00,-4.8175E+00
4.3400E+02,8.7586E+00,-4.6635E+00
4.3600E+02,8.9734E+00,-4.5000E+00
4.3800E+02,9.2167E+00,-4.0247E+00
4.3900E+02,9.2966E+00,-3.7605E+00
4.4100E+02,9.4696E+00,-3.6749E+00
4.4300E+02,9.5494E+00,-3.0437E+00
4.4500E+02,9.2433E+00,-2.8137E+00
4.4700E+02,8.9886E+00,-2.6844E+00
4.4900E+02,9.0361E+00,-2.7605E+00
4.5100E+02,9.0646E+00,-2.2890E+00
4.5300E+02,9.1084E+00,-2.1141E+00
4.5500E+02,9.1217E+00,-1.9696E+00
4.5700E+02,9.4316E+00,-1.9297E+00
4.5900E+02,9.5076E+00,-1.6753E+00
4.6100E+02,9.2814E+00,-1.5357E+00
4.6300E+02,9.0551E+00,-1.3593E+00
4.6500E+02,8.9886E+00,-1.0703E+00
4.6700E+02,9.1578E+00,-7.1749E-01
4.6900E+02,8.9354E+00,-2.6749E-01
4.7100E+02,8.8175E+00,-1.8268E-01
4.7300E+02,8.7148E+00,-4.5575E-01
4.7500E+02,8.8802E+00,-6.2365E-01
4.7700E+02,9.0722E+00,-5.4308E-01
4.7900E+02,8.9297E+00,-3.0084E-01
4.8000E+02,8.5133E+00,-9.2966E-02
4.8200E+02,8.3175E+00,-1.1483E-01
4.8400E+02,8.4943E+00,-5.5133E-02
4.8600E+02,8.7814E+00,-2.3023E-01
4.8800E+02,8.7909E+00,-2.2394E-01
4.9000E+02,8.2871E+00,2.0418E-01
4.9200E+02,7.8631E+00,1.9329E-01
4.9400E+02,7.9525E+00,7.0110E-02
4.9600E+02,8.2928E+00,-1.8289E-01
4.9800E+02,8.1958E+00,-3.1369E-01
5.0000E+02,7.8726E+00,4.9468E-02
