Freq (Hz),Real,Imaginary
0.0000E+00,1.0000E+00,0.0000E+00
1.9500E+00,9.9148E-01,1.0567E-01
3.9100E+00,9.6531E-01,2.1947E-01
5.8600E+00,9.2585E-01,3.2018E-01
7.8100E+00,8.8263E-01,4.1098E-01
9.7700E+00,8.2395E-01,4.9683E-01
1.1700E+01,7.5852E-01,5.8228E-01
1.3700E+01,6.8002E-01,6.5841E-01
1.5600E+01,5.9140E-01,7.3176E-01
1.7600E+01,4.9941E-01,7.9837E-01
1.9500E+01,3.9195E-01,8.5765E-01
2.1500E+01,2.7657E-01,9.0741E-01
2.3400E+01,1.5960E-01,9.4984E-01
2.5400E+01,3.7252E-02,9.8592E-01
2.7300E+01,-9.4726E-02,1.0091E+00
2.9300E+01,-2.2304E-01,1.0210E+00
3.1300E+01,-3.5626E-01,1.0289E+00
3.3200E+01,-4.8929E-01,1.0270E+00
3.5200E+01,-6.2034E-01,1.0052E+00
3.7100E+01,-7.4841E-01,9.8354E-01
3.9100E+01,-8.7391E-01,9.4845E-01
4.1000E+01,-9.9722E-01,8.9988E-01
4.3000E+01,-1.1102E+00,8.3803E-01
4.4900E+01,-1.2252E+00,7.7181E-01
4.6900E+01,-1.3184E+00,6.9211E-01
4.8800E+01,-1.4096E+00,6.0944E-01
5.0800E+01,-1.4909E+00,5.1467E-01
5.2700E+01,-1.5563E+00,4.1039E-01
5.4700E+01,-1.6197E+00,3.0353E-01
5.6600E+01,-1.6614E+00,1.8933E-01
5.8600E+01,-1.6951E+00,6.8497E-02
6.0500E+01,-1.7149E+00,-5.0535E-02
6.2500E+01,-1.7169E+00,-1.8081E-01
6.4500E+01,-1.7090E+00,-3.0849E-01
6.6400E+01,-1.6852E+00,-4.3795E-01
6.8400E+01,-1.6416E+00,-5.6622E-01
7.0300E+01,-1.5880E+00,-6.9568E-01
7.2300E+01,-1.5206E+00,-8.1899E-01
7.4200E+01,-1.4393E+00,-9.4251E-01
7.6200E+01,-1.3422E+00,-1.0587E+00
7.8100E+01,-1.2331E+00,-1.1697E+00
8.0100E+01,-1.1142E+00,-1.2708E+00
8.2000E+01,-9.8236E-01,-1.3680E+00
8.4000E+01,-8.4001E-01,-1.4572E+00
8.5900E+01,-6.8735E-01,-1.5285E+00
8.7900E+01,-5.2359E-01,-1.5960E+00
8.9800E+01,-3.5547E-01,-1.6495E+00
9.1800E+01,-1.8319E-01,-1.6911E+00
9.3800E+01,-2.6675E-03,-1.7228E+00
9.5700E+01,1.8101E-01,-1.7328E+00
9.7700E+01,3.6142E-01,-1.7387E+00
9.9600E+01,5.5472E-01,-1.7268E+00
1.0200E+02,7.3216E-01,-1.7030E+00
1.0400E+02,9.1574E-01,-1.6554E+00
1.0500E+02,1.1003E+00,-1.5979E+00
1.0700E+02,1.2708E+00,-1.5266E+00
1.0900E+02,1.4374E+00,-1.4393E+00
1.1100E+02,1.5979E+00,-1.3382E+00
1.1300E+02,1.7486E+00,-1.2331E+00
1.1500E+02,1.8894E+00,-1.1063E+00
1.1700E+02,2.0163E+00,-9.6610E-01
1.1900E+02,2.1273E+00,-8.1701E-01
1.2100E+02,2.2324E+00,-6.5048E-01
1.2300E+02,2.3117E+00,-4.8573E-01
1.2500E+02,2.3692E+00,-3.0789E-01
1.2700E+02,2.4207E+00,-1.1836E-01
1.2900E+02,2.4584E+00,7.5218E-02
1.3100E+02,2.4663E+00,2.6685E-01
1.3300E+02,2.4584E+00,4.6471E-01
1.3500E+02,2.4286E+00,6.6554E-01
1.3700E+02,2.3890E+00,8.6836E-01
1.3900E+02,2.3216E+00,1.0626E+00
1.4100E+02,2.2284E+00,1.2629E+00
1.4300E+02,2.1233E+00,1.4492E+00
1.4500E+02,2.0044E+00,1.6356E+00
1.4600E+02,1.8616E+00,1.8160E+00
1.4800E+02,1.7050E+00,1.9845E+00
1.5000E+02,1.5226E+00,2.1412E+00
1.5200E+02,1.3382E+00,2.2859E+00
1.5400E+02,1.1201E+00,2.4148E+00
1.5600E+02,8.9988E-01,2.5297E+00
1.5800E+02,6.6237E-01,2.6229E+00
1.6000E+02,4.1872E-01,2.7082E+00
1.6200E+02,1.6118E-01,2.7756E+00
1.6400E+02,-9.3715E-02,2.8152E+00
1.6600E+02,-3.5111E-01,2.8450E+00
1.6800E+02,-6.2232E-01,2.8430E+00
1.7000E+02,-9.0404E-01,2.8351E+00
1.7200E+02,-1.1697E+00,2.7954E+00
1.7400E+02,-1.4413E+00,2.7300E+00
1.7600E+02,-1.7109E+00,2.6447E+00
1.7800E+02,-1.9607E+00,2.5278E+00
1.8000E+02,-2.2244E+00,2.4088E+00
1.8200E+02,-2.4703E+00,2.2502E+00
1.8400E+02,-2.6963E+00,2.0856E+00
1.8600E+02,-2.9243E+00,1.8973E+00
1.8800E+02,-3.1106E+00,1.6990E+00
1.8900E+02,-3.3010E+00,1.4592E+00
1.9100E+02,-3.4635E+00,1.2173E+00
1.9300E+02,-3.5944E+00,9.5222E-01
1.9500E+02,-3.7331E+00,6.8557E-01
1.9700E+02,-3.8263E+00,3.7926E-01
1.9900E+02,-3.8898E+00,8.1523E-02
2.0100E+02,-3.9215E+00,-2.1293E-01
2.0300E+02,-3.9274E+00,-5.4362E-01
2.0500E+02,-3.9076E+00,-8.5329E-01
2.0700E+02,-3.8739E+00,-1.1717E+00
2.0900E+02,-3.8085E+00,-1.4830E+00
2.1100E+02,-3.7193E+00,-1.8021E+00
2.1300E+02,-3.5904E+00,-2.1213E+00
2.1500E+02,-3.4120E+00,-2.4009E+00
2.1700E+02,-3.2177E+00,-2.7042E+00
2.1900E+02,-3.0174E+00,-3.0056E+00
2.2100E+02,-2.7657E+00,-3.2653E+00
2.2300E+02,-2.4722E+00,-3.5230E+00
2.2500E+02,-2.1848E+00,-3.7589E+00
2.2700E+02,-1.8279E+00,-3.9631E+00
2.2900E+02,-1.5424E+00,-4.1693E+00
2.3000E+02,-1.1757E+00,-4.3398E+00
2.3200E+02,-7.9223E-01,-4.4786E+00
2.3400E+02,-3.9433E-01,-4.6055E+00
2.3600E+02,1.0607E-02,-4.6907E+00
2.3800E+02,4.3715E-01,-4.7482E+00
2.4000E+02,8.6776E-01,-4.7581E+00
2.4200E+02,1.2688E+00,-4.7680E+00
2.4400E+02,1.6990E+00,-4.7026E+00
2.4600E+02,2.1372E+00,-4.6590E+00
2.4800E+02,2.5852E+00,-4.5381E+00
2.5000E+02,3.0174E+00,-4.3596E+00
2.5200E+02,3.3921E+00,-4.1673E+00
2.5400E+02,3.7787E+00,-3.9274E+00
2.5600E+02,4.1931E+00,-3.6657E+00
2.5800E+02,4.5738E+00,-3.3763E+00
2.6000E+02,4.9405E+00,-3.0888E+00
2.6200E+02,5.2696E+00,-2.7201E+00
2.6400E+02,5.5274E+00,-2.3037E+00
2.6600E+02,5.7910E+00,-1.8735E+00
2.6800E+02,6.0468E+00,-1.4374E+00
2.7000E+02,6.2490E+00,-9.8949E-01
2.7100E+02,6.3997E+00,-5.0456E-01
2.7300E+02,6.5127E+00,1.0944E-02
2.7500E+02,6.5900E+00,5.2974E-01
2.7700E+02,6.6713E+00,1.0585E+00
2.7900E+02,6.6376E+00,1.6316E+00
2.8100E+02,6.5305E+00,2.1669E+00
2.8300E+02,6.4611E+00,2.7062E+00
2.8500E+02,6.3462E+00,3.2593E+00
2.8700E+02,6.1479E+00,3.8422E+00
2.8900E+02,5.9060E+00,4.3735E+00
2.9100E+02,5.5789E+00,4.9841E+00
2.9300E+02,5.2835E+00,5.5214E+00
2.9500E+02,4.9029E+00,5.9715E+00
2.9700E+02,4.4548E+00,6.4651E+00
2.9900E+02,3.9572E+00,6.9132E+00
3.0100E+02,3.4754E+00,7.3394E+00
3.0300E+02,2.9124E+00,7.7756E+00
3.0500E+02,2.3414E+00,8.1879E+00
3.0700E+02,1.6990E+00,8.5091E+00
3.0900E+02,9.6868E-01,8.7728E+00
3.1100E+02,3.0710E-01,9.0563E+00
3.1300E+02,-3.5745E-01,9.1891E+00
3.1400E+02,-1.0625E+00,9.3239E+00
3.1600E+02,-1.7169E+00,9.3854E+00
3.1800E+02,-2.5297E+00,9.2744E+00
3.2000E+02,-3.5131E+00,9.2843E+00
3.2200E+02,-4.2605E+00,9.2149E+00
3.2400E+02,-5.0317E+00,9.0662E+00
3.2600E+02,-5.8010E+00,8.8204E+00
3.2800E+02,-6.4512E+00,8.7094E+00
3.3000E+02,-7.4703E+00,8.3406E+00
3.3200E+02,-8.1086E+00,7.7637E+00
3.3400E+02,-8.7034E+00,7.4088E+00
3.3600E+02,-9.3378E+00,7.1293E+00
3.3800E+02,-9.9346E+00,6.4116E+00
3.4000E+02,-1.0587E+01,5.5987E+00
3.4200E+02,-1.1281E+01,5.0555E+00
3.4400E+02,-1.1757E+01,4.3378E+00
3.4600E+02,-1.2272E+01,3.5111E+00
3.4800E+02,-1.2787E+01,2.6745E+00
3.5000E+02,-1.3085E+01,1.7387E+00
3.5200E+02,-1.3224E+01,8.6420E-01
3.5400E+02,-1.3422E+01,3.2867E-02
3.5500E+02,-1.3680E+01,-8.6558E-01
3.5700E+02,-1.3699E+01,-1.9845E+00
3.5900E+02,-1.3739E+01,-3.1860E+00
3.6100E+02,-1.3799E+01,-3.9274E+00
3.6300E+02,-1.3660E+01,-4.7760E+00
3.6500E+02,-1.3402E+01,-6.0607E+00
3.6700E+02,-1.2926E+01,-7.0876E+00
3.6900E+02,-1.2669E+01,-7.9183E+00
3.7100E+02,-1.2431E+01,-8.8362E+00
3.7300E+02,-1.2193E+01,-9.9941E+00
3.7500E+02,-1.1519E+01,-1.1043E+01
3.7700E+02,-1.0646E+01,-1.2094E+01
3.7900E+02,-9.8434E+00,-1.3025E+01
3.8100E+02,-8.9711E+00,-1.4096E+01
3.8300E+02,-8.1741E+00,-1.4849E+01
3.8500E+02,-7.2205E+00,-1.5028E+01
3.8700E+02,-6.4453E+00,-1.5781E+01
3.8900E+02,-5.5710E+00,-1.6891E+01
3.9100E+02,-4.4925E+00,-1.7625E+01
3.9300E+02,-3.3128E+00,-1.7744E+01
3.9500E+02,-1.7744E+00,-1.8220E+01
3.9600E+02,-5.9364E-01,-1.8477E+01
3.9800E+02,4.6178E-01,-1.8676E+01
4.0000E+02,1.5147E+00,-1.8775E+01
4.0200E+02,2.4544E+00,-1.9072E+01
4.0400E+02,3.7827E+00,-1.8854E+01
4.0600E+02,5.2696E+00,-1.8874E+01
4.0800E+02,5.9556E+00,-1.8894E+01
4.1000E+02,7.3850E+00,-1.8477E+01
4.1200E+02,8.3128E+00,-1.8299E+01
4.1400E+02,9.8097E+00,-1.7902E+01
4.1600E+02,1.0884E+01,-1.7486E+01
4.1800E+02,1.2272E+01,-1.6713E+01
4.2000E+02,1.3303E+01,-1.6019E+01
4.2200E+02,1.3977E+01,-1.5226E+01
4.2400E+02,1.4453E+01,-1.4314E+01
4.2600E+02,1.5583E+01,-1.3481E+01
4.2800E+02,1.6257E+01,-1.3085E+01
4.3000E+02,1.6594E+01,-1.2094E+01
4.3200E+02,1.7565E+01,-1.0686E+01
4.3400E+02,1.8041E+01,-9.5539E+00
4.3600E+02,1.8220E+01,-8.6499E+00
4.3800E+02,1.8299E+01,-7.0559E+00
4.3900E+02,1.7942E+01,-6.2312E+00
4.4100E+02,1.8894E+01,-4.8791E+00
4.4300E+02,1.8319E+01,-3.9631E+00
4.4500E+02,1.7744E+01,-3.6142E+00
4.4700E+02,1.7228E+01,-3.2633E+00
4.4900E+02,1.7427E+01,-9.2010E-01
4.5100E+02,1.7922E+01,-4.2427E-02
4.5300E+02,1.7090E+01,1.8239E-01
4.5500E+02,1.5702E+01,1.6350E+00
4.5700E+02,1.5623E+01,2.2879E+00
4.5900E+02,1.5167E+01,3.1126E+00
4.6100E+02,1.2669E+01,3.5250E+00
4.6300E+02,1.2550E+01,4.9048E+00
4.6500E+02,1.3580E+01,5.0377E+00
4.6700E+02,1.2867E+01,5.1447E+00
4.6900E+02,1.1584E+01,4.8672E+00
4.7100E+02,1.0361E+01,4.7641E+00
4.7300E+02,9.9861E+00,5.1051E+00
4.7500E+02,8.8303E+00,6.1915E+00
4.7700E+02,7.3612E+00,6.4770E+00
4.7900E+02,6.3442E+00,5.5571E+00
4.8000E+02,6.8953E+00,5.2439E+00
4.8200E+02,6.9449E+00,4.1606E+00
4.8400E+02,6.0389E+00,4.2328E+00
4.8600E+02,5.3925E+00,3.3386E+00
4.8800E+02,4.4132E+00,2.8807E+00
4.9000E+02,4.0722E+00,2.6497E+00
4.9200E+02,3.9770E+00,2.2910E+00
4.9400E+02,3.8739E+00,1.2036E+00
4.9600E+02,2.8549E+00,5.6364E-01
4.9800E+02,3.0551E+00,3.3902E-01
5.0000E+02,3.7708E+00,7.1015E-02
